Frequency (Hz)	Level (dB)
5.383301	-35.236149
10.766602	-33.561615
16.149902	-31.456327
21.533203	-29.732040
26.916504	-28.760771
32.299805	-28.005125
37.683105	-27.405582
43.066406	-26.997559
48.449707	-26.595066
53.833008	-26.537617
59.216309	-26.549116
64.599609	-26.567871
69.982910	-26.620682
75.366211	-26.774710
80.749512	-27.027401
86.132812	-27.070019
91.516113	-27.086298
96.899414	-27.380419
102.282715	-27.598772
107.666016	-27.647757
113.049316	-27.790825
118.432617	-27.931242
123.815918	-28.017996
129.199219	-28.124771
134.582520	-28.209267
139.965820	-28.317423
145.349121	-28.593719
150.732422	-28.912184
156.115723	-29.170176
161.499023	-29.363909
166.882324	-29.696026
172.265625	-30.135033
177.648926	-30.572870
183.032227	-31.186518
188.415527	-31.738758
193.798828	-32.075493
199.182129	-31.978479
204.565430	-31.560284
209.948730	-31.029341
215.332031	-29.864672
220.715332	-28.485418
226.098633	-27.915859
231.481934	-28.674568
236.865234	-28.014898
242.248535	-29.190298
247.631836	-30.487669
253.015137	-31.722946
258.398438	-32.172607
263.781738	-33.278255
269.165039	-32.818104
274.548340	-30.506554
279.931641	-30.650612
285.314941	-27.792164
290.698242	-23.477814
296.081543	-22.226908
301.464844	-21.403864
306.848145	-24.189741
312.231445	-26.668327
317.614746	-30.219511
322.998047	-35.557285
328.381348	-39.211643
333.764648	-39.105148
339.147949	-37.264290
344.531250	-37.530182
349.914551	-40.817772
355.297852	-42.668556
360.681152	-42.960976
366.064453	-41.434910
371.447754	-44.323292
376.831055	-44.647121
382.214355	-44.019096
387.597656	-42.789005
392.980957	-39.716244
398.364258	-39.637459
403.747559	-40.410500
409.130859	-38.320312
414.514160	-35.761070
419.897461	-36.526672
425.280762	-36.699142
430.664062	-34.949074
436.047363	-34.659019
441.430664	-33.004742
446.813965	-31.435743
452.197266	-30.249290
457.580566	-24.225166
462.963867	-22.971207
468.347168	-25.180090
473.730469	-27.829529
479.113770	-31.276356
484.497070	-33.693359
489.880371	-33.627640
495.263672	-30.916578
500.646973	-28.625629
506.030273	-29.411028
511.413574	-33.630741
516.796875	-36.843708
522.180176	-32.450874
527.563477	-30.047005
532.946777	-28.881554
538.330078	-28.028536
543.713379	-27.548548
549.096680	-27.125790
554.479980	-26.265308
559.863281	-25.605391
565.246582	-24.673214
570.629883	-23.692451
576.013184	-23.711920
581.396484	-26.032814
586.779785	-29.447762
592.163086	-32.066803
597.546387	-32.937157
602.929688	-28.142838
608.312988	-27.909496
613.696289	-32.020191
619.079590	-37.842861
624.462891	-34.815472
629.846191	-36.564037
635.229492	-39.136597
640.612793	-37.018166
645.996094	-37.127895
651.379395	-40.247475
656.762695	-37.295792
662.145996	-36.368698
667.529297	-35.579590
672.912598	-35.009365
678.295898	-36.343021
683.679199	-38.861477
689.062500	-38.961308
694.445801	-40.742298
699.829102	-39.440651
705.212402	-38.050446
710.595703	-35.316593
715.979004	-37.677059
721.362305	-38.143013
726.745605	-36.734833
732.128906	-35.977299
737.512207	-34.350498
742.895508	-32.535412
748.278809	-33.708561
753.662109	-32.356052
759.045410	-29.940941
764.428711	-30.193539
769.812012	-29.661037
775.195312	-28.276560
780.578613	-22.827980
785.961914	-20.095760
791.345215	-23.088497
796.728516	-32.222336
802.111816	-28.818623
807.495117	-28.494944
812.878418	-29.236443
818.261719	-30.069130
823.645020	-29.781879
829.028320	-28.691578
834.411621	-27.221817
839.794922	-28.949278
845.178223	-31.157692
850.561523	-28.011700
855.944824	-25.614037
861.328125	-24.734058
866.711426	-24.588875
872.094727	-27.975668
877.478027	-29.526630
882.861328	-28.675039
888.244629	-31.176888
893.627930	-33.135506
899.011230	-33.697033
904.394531	-34.547573
909.777832	-33.313690
915.161133	-33.050354
920.544434	-35.571114
925.927734	-36.008690
931.311035	-35.728485
936.694336	-38.808517
942.077637	-39.307121
947.460938	-37.837646
952.844238	-38.596348
958.227539	-38.234390
963.610840	-35.403305
968.994141	-34.714714
974.377441	-34.192410
979.760742	-33.315731
985.144043	-30.412430
990.527344	-25.495083
995.910645	-24.709452
1001.293945	-27.920950
1006.677246	-29.404442
1012.060547	-29.576023
1017.443848	-32.452682
1022.827148	-34.333134
1028.210449	-34.755516
1033.593750	-36.100529
1038.977051	-35.854416
1044.360352	-35.927002
1049.743652	-36.644993
1055.126953	-37.915813
1060.510254	-39.754581
1065.893555	-42.481205
1071.276855	-44.479794
1076.660156	-44.897045
1082.043457	-42.822655
1087.426758	-41.064785
1092.810059	-41.206154
1098.193359	-42.307877
1103.576660	-44.766006
1108.959961	-45.187244
1114.343262	-43.066345
1119.726562	-42.762005
1125.109863	-42.049362
1130.493164	-40.065907
1135.876465	-39.563232
1141.259766	-40.692162
1146.643066	-41.234478
1152.026367	-42.288403
1157.409668	-42.831940
1162.792969	-40.948303
1168.176270	-40.756207
1173.559570	-40.337318
1178.942871	-39.703835
1184.326172	-40.246826
1189.709473	-42.090744
1195.092773	-41.891945
1200.476074	-41.412453
1205.859375	-41.089550
1211.242676	-41.019890
1216.625977	-42.831306
1222.009277	-42.847416
1227.392578	-37.804237
1232.775879	-36.147968
1238.159180	-37.961796
1243.542480	-42.458397
1248.925781	-39.731705
1254.309082	-38.062283
1259.692383	-40.552937
1265.075684	-43.295940
1270.458984	-44.301788
1275.842285	-45.805092
1281.225586	-43.360031
1286.608887	-43.974182
1291.992188	-45.020805
1297.375488	-46.860157
1302.758789	-45.103516
1308.142090	-44.242970
1313.525391	-45.520496
1318.908691	-44.701069
1324.291992	-43.711304
1329.675293	-41.932117
1335.058594	-39.204109
1340.441895	-39.925869
1345.825195	-41.880466
1351.208496	-41.552235
1356.591797	-41.903572
1361.975098	-42.723179
1367.358398	-43.172005
1372.741699	-45.557152
1378.125000	-45.726715
1383.508301	-41.608307
1388.891602	-40.011276
1394.274902	-40.416496
1399.658203	-39.101330
1405.041504	-38.145081
1410.424805	-37.965248
1415.808105	-38.451923
1421.191406	-38.252560
1426.574707	-39.083202
1431.958008	-39.759460
1437.341309	-38.382996
1442.724609	-36.969795
1448.107910	-36.652504
1453.491211	-37.006130
1458.874512	-38.035110
1464.257812	-38.201645
1469.641113	-38.972954
1475.024414	-38.360695
1480.407715	-37.373440
1485.791016	-37.175163
1491.174316	-37.166504
1496.557617	-37.413445
1501.940918	-36.082733
1507.324219	-35.863037
1512.707520	-35.449936
1518.090820	-34.650055
1523.474121	-33.850288
1528.857422	-33.041721
1534.240723	-33.029121
1539.624023	-32.864670
1545.007324	-34.740570
1550.390625	-35.154850
1555.773926	-36.694607
1561.157227	-37.594578
1566.540527	-41.009640
1571.923828	-45.765491
1577.307129	-42.085796
1582.690430	-42.573658
1588.073730	-42.238598
1593.457031	-42.017838
1598.840332	-41.766548
1604.223633	-41.709961
1609.606934	-41.622341
1614.990234	-41.254608
1620.373535	-39.895809
1625.756836	-40.588120
1631.140137	-45.362312
1636.523438	-46.258545
1641.906738	-41.465969
1647.290039	-36.605740
1652.673340	-36.556583
1658.056641	-39.588570
1663.439941	-43.266506
1668.823242	-45.184147
1674.206543	-46.209259
1679.589844	-44.401821
1684.973145	-40.328064
1690.356445	-38.460110
1695.739746	-38.206688
1701.123047	-39.130466
1706.506348	-41.618298
1711.889648	-43.015549
1717.272949	-43.798206
1722.656250	-43.716663
1728.039551	-42.464745
1733.422852	-40.953529
1738.806152	-39.557945
1744.189453	-39.610039
1749.572754	-39.698418
1754.956055	-38.931072
1760.339355	-38.789612
1765.722656	-39.672813
1771.105957	-40.059593
1776.489258	-39.849007
1781.872559	-39.911434
1787.255859	-42.462170
1792.639160	-46.300442
1798.022461	-48.101566
1803.405762	-47.333820
1808.789062	-45.995613
1814.172363	-45.227081
1819.555664	-46.504662
1824.938965	-47.037155
1830.322266	-46.965729
1835.705566	-48.531399
1841.088867	-46.656315
1846.472168	-42.756329
1851.855469	-40.282372
1857.238770	-40.200642
1862.622070	-40.300430
1868.005371	-41.203342
1873.388672	-41.426796
1878.771973	-41.112915
1884.155273	-40.418640
1889.538574	-38.855621
1894.921875	-38.887886
1900.305176	-37.663830
1905.688477	-39.104561
1911.071777	-39.382885
1916.455078	-38.579025
1921.838379	-39.296402
1927.221680	-43.591705
1932.604980	-47.655327
1937.988281	-48.309341
1943.371582	-45.133007
1948.754883	-45.705307
1954.138184	-45.682503
1959.521484	-46.565880
1964.904785	-45.579433
1970.288086	-44.179203
1975.671387	-42.304676
1981.054688	-45.330917
1986.437988	-42.888340
1991.821289	-40.691608
1997.204590	-41.038700
2002.587891	-40.133530
2007.971191	-38.233540
2013.354492	-43.690922
2018.737793	-43.055519
2024.121094	-40.123859
2029.504395	-43.059967
2034.887695	-42.625523
2040.270996	-43.101654
2045.654297	-44.716572
2051.037598	-44.405682
2056.420898	-42.461140
2061.804199	-43.193474
2067.187500	-40.525887
2072.570801	-38.694790
2077.954102	-37.979179
2083.337402	-40.303280
2088.720703	-41.102917
2094.104004	-40.558201
2099.487305	-40.027378
2104.870605	-42.360622
2110.253906	-42.499866
2115.637207	-42.008030
2121.020508	-41.123642
2126.403809	-39.643574
2131.787109	-41.074650
2137.170410	-43.708599
2142.553711	-39.417194
2147.937012	-37.622524
2153.320312	-40.571476
2158.703613	-41.397514
2164.086914	-40.730404
2169.470215	-42.596176
2174.853516	-41.990467
2180.236816	-40.088486
2185.620117	-40.055649
2191.003418	-41.145016
2196.386719	-41.024075
2201.770020	-40.556953
2207.153320	-39.451046
2212.536621	-38.378071
2217.919922	-37.098618
2223.303223	-36.459133
2228.686523	-36.482910
2234.069824	-36.634369
2239.453125	-37.798439
2244.836426	-38.379646
2250.219727	-40.386990
2255.603027	-41.316574
2260.986328	-41.372574
2266.369629	-40.581551
2271.752930	-39.902321
2277.136230	-41.272064
2282.519531	-42.882919
2287.902832	-43.137554
2293.286133	-43.138668
2298.669434	-44.984158
2304.052734	-45.008015
2309.436035	-44.098812
2314.819336	-45.025475
2320.202637	-46.002033
2325.585938	-46.776928
2330.969238	-47.740070
2336.352539	-48.698334
2341.735840	-47.127453
2347.119141	-45.280117
2352.502441	-46.277172
2357.885742	-43.866138
2363.269043	-42.072315
2368.652344	-44.036648
2374.035645	-45.644844
2379.418945	-45.719574
2384.802246	-46.675968
2390.185547	-45.230835
2395.568848	-42.458508
2400.952148	-43.176952
2406.335449	-45.160946
2411.718750	-45.652866
2417.102051	-46.865597
2422.485352	-46.459217
2427.868652	-46.114258
2433.251953	-46.733017
2438.635254	-48.293762
2444.018555	-47.123554
2449.401855	-47.018803
2454.785156	-46.035389
2460.168457	-46.648758
2465.551758	-48.912781
2470.935059	-49.219177
2476.318359	-49.014553
2481.701660	-48.359684
2487.084961	-47.301380
2492.468262	-45.156139
2497.851562	-44.788532
2503.234863	-45.477497
2508.618164	-46.283592
2514.001465	-45.656334
2519.384766	-43.990757
2524.768066	-44.723610
2530.151367	-45.166626
2535.534668	-44.758751
2540.917969	-44.101307
2546.301270	-44.371620
2551.684570	-45.659763
2557.067871	-46.729015
2562.451172	-48.494553
2567.834473	-49.592842
2573.217773	-50.522926
2578.601074	-51.552219
2583.984375	-50.498474
2589.367676	-51.188278
2594.750977	-53.569569
2600.134277	-51.245941
2605.517578	-47.517292
2610.900879	-50.493675
2616.284180	-52.949417
2621.667480	-49.116142
2627.050781	-50.661396
2632.434082	-48.760105
2637.817383	-45.816456
2643.200684	-44.237190
2648.583984	-44.302299
2653.967285	-44.835125
2659.350586	-44.127171
2664.733887	-43.290760
2670.117188	-43.484020
2675.500488	-44.796124
2680.883789	-43.628628
2686.267090	-40.728111
2691.650391	-39.627781
2697.033691	-40.602158
2702.416992	-42.467804
2707.800293	-43.519016
2713.183594	-43.968697
2718.566895	-43.809521
2723.950195	-42.459492
2729.333496	-42.769211
2734.716797	-42.955170
2740.100098	-42.090946
2745.483398	-41.950573
2750.866699	-43.116665
2756.250000	-44.381939
2761.633301	-47.242741
2767.016602	-46.284153
2772.399902	-44.212883
2777.783203	-42.459435
2783.166504	-43.207901
2788.549805	-46.240211
2793.933105	-49.613853
2799.316406	-46.854557
2804.699707	-44.582085
2810.083008	-44.092300
2815.466309	-44.252251
2820.849609	-44.627235
2826.232910	-44.206070
2831.616211	-42.641872
2836.999512	-41.730831
2842.382812	-42.205822
2847.766113	-42.148502
2853.149414	-41.550869
2858.532715	-40.890205
2863.916016	-41.188335
2869.299316	-40.824776
2874.682617	-40.924149
2880.065918	-41.110855
2885.449219	-41.272556
2890.832520	-41.767601
2896.215820	-43.157516
2901.599121	-45.137215
2906.982422	-47.480907
2912.365723	-47.966782
2917.749023	-48.595795
2923.132324	-49.608017
2928.515625	-50.011898
2933.898926	-51.892166
2939.282227	-49.896866
2944.665527	-48.820362
2950.048828	-48.365322
2955.432129	-50.142990
2960.815430	-50.079807
2966.198730	-47.557339
2971.582031	-47.831146
2976.965332	-48.353638
2982.348633	-50.301559
2987.731934	-50.571533
2993.115234	-47.784210
2998.498535	-45.779823
3003.881836	-47.932537
3009.265137	-49.435219
3014.648438	-48.327919
3020.031738	-49.729145
3025.415039	-49.217381
3030.798340	-47.257729
3036.181641	-47.102680
3041.564941	-46.551727
3046.948242	-44.406544
3052.331543	-44.154320
3057.714844	-44.692215
3063.098145	-44.554737
3068.481445	-43.591080
3073.864746	-43.401257
3079.248047	-44.138477
3084.631348	-43.873940
3090.014648	-43.979271
3095.397949	-44.123444
3100.781250	-43.848461
3106.164551	-43.688244
3111.547852	-44.377579
3116.931152	-45.388618
3122.314453	-45.813606
3127.697754	-46.047737
3133.081055	-46.589924
3138.464355	-47.677067
3143.847656	-47.761219
3149.230957	-47.752853
3154.614258	-49.815941
3159.997559	-51.942432
3165.380859	-49.451324
3170.764160	-48.987331
3176.147461	-48.124287
3181.530762	-46.094868
3186.914062	-46.129436
3192.297363	-47.039822
3197.680664	-47.881962
3203.063965	-47.619484
3208.447266	-47.600914
3213.830566	-48.178272
3219.213867	-49.305779
3224.597168	-50.741699
3229.980469	-51.642101
3235.363770	-49.079983
3240.747070	-46.876472
3246.130371	-46.449364
3251.513672	-48.279205
3256.896973	-50.074535
3262.280273	-49.745224
3267.663574	-48.406979
3273.046875	-48.090893
3278.430176	-47.700390
3283.813477	-46.426846
3289.196777	-46.591118
3294.580078	-47.877129
3299.963379	-48.699364
3305.346680	-49.070885
3310.729980	-49.777626
3316.113281	-48.596310
3321.496582	-46.477875
3326.879883	-44.508278
3332.263184	-43.714333
3337.646484	-44.706528
3343.029785	-45.229599
3348.413086	-44.087723
3353.796387	-43.771851
3359.179688	-44.921219
3364.562988	-47.581692
3369.946289	-45.831882
3375.329590	-45.118816
3380.712891	-45.726963
3386.096191	-48.357620
3391.479492	-51.141186
3396.862793	-51.369049
3402.246094	-50.336006
3407.629395	-55.339596
3413.012695	-51.683628
3418.395996	-47.438900
3423.779297	-46.286591
3429.162598	-46.024471
3434.545898	-42.413960
3439.929199	-41.648575
3445.312500	-42.864681
3450.695801	-44.021484
3456.079102	-42.901630
3461.462402	-41.514599
3466.845703	-42.043793
3472.229004	-42.662525
3477.612305	-43.436737
3482.995605	-43.083401
3488.378906	-43.109818
3493.762207	-43.974022
3499.145508	-44.971638
3504.528809	-42.679604
3509.912109	-41.297974
3515.295410	-43.228615
3520.678711	-47.902702
3526.062012	-46.496479
3531.445312	-42.030106
3536.828613	-42.919952
3542.211914	-44.620144
3547.595215	-44.842949
3552.978516	-43.490841
3558.361816	-42.737362
3563.745117	-44.365959
3569.128418	-43.173286
3574.511719	-40.036381
3579.895020	-38.200314
3585.278320	-38.954266
3590.661621	-39.658363
3596.044922	-41.220341
3601.428223	-40.393658
3606.811523	-40.410133
3612.194824	-41.518211
3617.578125	-42.294540
3622.961426	-41.505444
3628.344727	-41.417126
3633.728027	-41.641327
3639.111328	-41.405003
3644.494629	-41.422852
3649.877930	-41.515224
3655.261230	-40.902008
3660.644531	-41.240540
3666.027832	-42.038963
3671.411133	-42.157856
3676.794434	-41.888622
3682.177734	-42.406757
3687.561035	-42.625671
3692.944336	-42.545918
3698.327637	-43.194000
3703.710938	-43.838242
3709.094238	-43.208591
3714.477539	-42.721897
3719.860840	-42.803658
3725.244141	-42.461212
3730.627441	-42.101364
3736.010742	-41.661121
3741.394043	-40.908653
3746.777344	-40.944439
3752.160645	-40.489399
3757.543945	-39.756733
3762.927246	-39.210915
3768.310547	-39.623550
3773.693848	-39.601780
3779.077148	-42.145969
3784.460449	-45.326843
3789.843750	-45.451363
3795.227051	-45.710255
3800.610352	-45.143642
3805.993652	-44.615410
3811.376953	-45.464954
3816.760254	-46.602783
3822.143555	-46.184807
3827.526855	-46.662853
3832.910156	-47.989975
3838.293457	-48.772461
3843.676758	-47.451797
3849.060059	-48.233131
3854.443359	-49.328259
3859.826660	-49.824898
3865.209961	-49.348606
3870.593262	-47.456013
3875.976562	-46.584808
3881.359863	-48.419708
3886.743164	-48.438774
3892.126465	-47.595230
3897.509766	-47.912949
3902.893066	-45.315758
3908.276367	-46.214214
3913.659668	-52.591099
3919.042969	-50.501678
3924.426270	-46.913025
3929.809570	-48.121120
3935.192871	-50.783447
3940.576172	-50.603149
3945.959473	-48.286591
3951.342773	-45.634640
3956.726074	-43.696758
3962.109375	-46.908970
3967.492676	-49.656631
3972.875977	-51.140827
3978.259277	-51.566177
3983.642578	-48.322884
3989.025879	-48.053272
3994.409180	-45.495365
3999.792480	-45.071259
4005.175781	-43.997185
4010.559082	-42.526325
4015.942383	-41.397079
4021.325684	-44.042255
4026.708984	-44.927593
4032.092285	-42.259205
4037.475586	-42.719170
4042.858887	-44.352077
4048.242188	-47.002918
4053.625488	-45.256077
4059.008789	-43.385696
4064.392090	-43.859581
4069.775391	-45.306389
4075.158691	-42.405918
4080.541992	-39.590435
4085.925293	-40.274361
4091.308594	-41.813438
4096.691895	-43.686619
4102.075195	-43.759315
4107.458496	-44.978088
4112.841797	-45.911476
4118.225098	-45.257629
4123.608398	-44.798992
4128.991699	-42.595718
4134.375000	-40.916084
4139.758301	-41.535988
4145.141602	-42.295467
4150.524902	-41.797253
4155.908203	-41.909576
4161.291504	-42.765511
4166.674805	-42.158665
4172.058105	-41.180950
4177.441406	-42.043648
4182.824707	-42.679096
4188.208008	-43.609852
4193.591309	-43.736229
4198.974609	-43.155476
4204.357910	-41.878181
4209.741211	-41.410400
4215.124512	-41.657242
4220.507812	-41.370380
4225.891113	-40.940784
4231.274414	-41.279507
4236.657715	-41.723270
4242.041016	-42.333504
4247.424316	-43.722347
4252.807617	-43.189682
4258.190918	-41.677574
4263.574219	-41.906746
4268.957520	-42.036598
4274.340820	-44.933685
4279.724121	-47.896168
4285.107422	-46.446037
4290.490723	-44.437893
4295.874023	-44.378563
4301.257324	-43.071171
4306.640625	-45.468376
4312.023926	-47.541893
4317.407227	-45.963818
4322.790527	-45.313847
4328.173828	-44.920891
4333.557129	-44.126987
4338.940430	-46.519588
4344.323730	-49.909412
4349.707031	-50.955761
4355.090332	-50.616150
4360.473633	-48.795265
4365.856934	-49.691174
4371.240234	-49.100700
4376.623535	-51.683601
4382.006836	-54.875164
4387.390137	-54.622833
4392.773438	-49.799911
4398.156738	-49.413769
4403.540039	-49.881729
4408.923340	-54.422203
4414.306641	-50.934254
4419.689941	-50.257042
4425.073242	-48.244675
4430.456543	-46.452335
4435.839844	-46.415936
4441.223145	-45.210976
4446.606445	-47.486248
4451.989746	-46.762226
4457.373047	-48.064274
4462.756348	-46.650387
4468.139648	-47.825363
4473.522949	-44.314133
4478.906250	-47.465157
4484.289551	-52.209282
4489.672852	-49.294205
4495.056152	-48.625385
4500.439453	-48.281830
4505.822754	-46.511627
4511.206055	-48.035080
4516.589355	-48.299591
4521.972656	-46.270996
4527.355957	-46.966595
4532.739258	-48.356770
4538.122559	-47.732597
4543.505859	-46.018585
4548.889160	-48.498009
4554.272461	-45.722984
4559.655762	-43.941315
4565.039062	-44.838142
4570.422363	-48.519688
4575.805664	-47.615479
4581.188965	-48.698914
4586.572266	-52.995480
4591.955566	-50.308414
4597.338867	-46.562107
4602.722168	-48.438519
4608.105469	-51.463963
4613.488770	-49.047356
4618.872070	-50.308636
4624.255371	-51.839695
4629.638672	-46.679115
4635.021973	-48.434525
4640.405273	-49.623352
4645.788574	-44.726078
4651.171875	-42.884171
4656.555176	-45.157986
4661.938477	-46.768200
4667.321777	-47.001690
4672.705078	-46.586685
4678.088379	-45.775780
4683.471680	-45.899769
4688.854980	-46.142921
4694.238281	-45.113724
4699.621582	-43.102184
4705.004883	-43.897141
4710.388184	-44.590004
4715.771484	-45.322445
4721.154785	-46.538570
