Frequency (Hz)	Level (dB)
5.383301	-43.553650
10.766602	-38.827179
16.149902	-35.863964
21.533203	-34.058071
26.916504	-32.895283
32.299805	-32.031921
37.683105	-31.561529
43.066406	-31.274200
48.449707	-30.438093
53.833008	-30.620926
59.216309	-30.704197
64.599609	-30.538000
69.982910	-30.519812
75.366211	-30.610933
80.749512	-30.771559
86.132812	-31.023779
91.516113	-31.309492
96.899414	-31.612606
102.282715	-32.097610
107.666016	-32.810810
113.049316	-33.299145
118.432617	-33.268047
123.815918	-32.761414
129.199219	-32.007797
134.582520	-30.995577
139.965820	-29.769102
145.349121	-28.065752
150.732422	-26.081280
156.115723	-23.565617
161.499023	-20.545170
166.882324	-18.542336
172.265625	-21.370512
177.648926	-26.162687
183.032227	-29.516832
188.415527	-31.548365
193.798828	-32.839561
199.182129	-33.175983
204.565430	-33.755939
209.948730	-33.847454
215.332031	-31.706970
220.715332	-23.876635
226.098633	-20.852674
231.481934	-25.985546
236.865234	-27.943150
242.248535	-28.637962
247.631836	-28.959471
253.015137	-29.387980
258.398438	-29.383635
263.781738	-29.176254
269.165039	-28.656271
274.548340	-27.610985
279.931641	-26.418789
285.314941	-25.231430
290.698242	-24.652279
296.081543	-25.639990
301.464844	-27.505899
306.848145	-29.283371
312.231445	-30.121252
317.614746	-29.658052
322.998047	-28.200262
328.381348	-26.267475
333.764648	-25.369270
339.147949	-26.785923
344.531250	-29.038582
349.914551	-31.025412
355.297852	-31.831360
360.681152	-31.365932
366.064453	-31.541779
371.447754	-32.011940
376.831055	-32.508499
382.214355	-32.793243
387.597656	-32.425503
392.980957	-30.649582
398.364258	-29.117941
403.747559	-28.263494
409.130859	-27.871889
414.514160	-28.512051
419.897461	-29.779854
425.280762	-31.082500
430.664062	-32.188423
436.047363	-32.205540
441.430664	-30.849882
446.813965	-28.847731
452.197266	-26.131754
457.580566	-23.750631
462.963867	-26.119038
468.347168	-29.841181
473.730469	-32.749847
479.113770	-35.319767
484.497070	-36.752056
489.880371	-36.570679
495.263672	-36.589214
500.646973	-35.871891
506.030273	-36.110168
511.413574	-38.375923
516.796875	-41.041798
522.180176	-37.591152
527.563477	-34.117615
532.946777	-33.220242
538.330078	-33.708477
543.713379	-33.399834
549.096680	-32.510712
554.479980	-31.372322
559.863281	-30.986349
565.246582	-28.605146
570.629883	-25.345219
576.013184	-23.845873
581.396484	-24.419811
586.779785	-25.602381
592.163086	-26.962967
597.546387	-27.880743
602.929688	-28.359880
608.312988	-26.367914
613.696289	-28.015915
619.079590	-29.582012
624.462891	-30.037846
629.846191	-31.655781
635.229492	-32.624943
640.612793	-32.442326
645.996094	-31.413656
651.379395	-31.223276
656.762695	-31.639969
662.145996	-32.650730
667.529297	-33.551105
672.912598	-33.994045
678.295898	-34.584267
683.679199	-35.337975
689.062500	-36.044773
694.445801	-36.376984
699.829102	-36.870453
705.212402	-37.869850
710.595703	-40.240360
715.979004	-42.784531
721.362305	-48.486183
726.745605	-51.070381
732.128906	-45.832478
737.512207	-42.356636
742.895508	-40.134106
748.278809	-38.400494
753.662109	-36.034294
759.045410	-33.906055
764.428711	-33.511757
769.812012	-34.334751
775.195312	-30.853333
780.578613	-27.216860
785.961914	-23.175404
791.345215	-19.759285
796.728516	-19.011698
802.111816	-19.875122
807.495117	-21.215424
812.878418	-21.738560
818.261719	-23.057058
823.645020	-24.536388
829.028320	-25.475149
834.411621	-23.587887
839.794922	-22.612122
845.178223	-22.902811
850.561523	-23.895409
855.944824	-25.190090
861.328125	-25.660530
866.711426	-26.042139
872.094727	-27.625044
877.478027	-28.243828
882.861328	-29.164425
888.244629	-30.904505
893.627930	-30.803770
899.011230	-29.993574
904.394531	-30.209938
909.777832	-30.762529
915.161133	-31.995859
920.544434	-32.585014
925.927734	-32.787380
931.311035	-33.633427
936.694336	-35.015312
942.077637	-37.234337
947.460938	-40.119087
952.844238	-43.328712
958.227539	-43.237724
963.610840	-38.645432
968.994141	-34.791306
974.377441	-31.301199
979.760742	-27.515615
985.144043	-25.202328
990.527344	-25.125731
995.910645	-26.811453
1001.293945	-28.787924
1006.677246	-31.167471
1012.060547	-33.446953
1017.443848	-34.832874
1022.827148	-35.202484
1028.210449	-34.943489
1033.593750	-34.616291
1038.977051	-34.922085
1044.360352	-35.870956
1049.743652	-37.713768
1055.126953	-40.423592
1060.510254	-43.497105
1065.893555	-46.862911
1071.276855	-47.615749
1076.660156	-44.304962
1082.043457	-40.819229
1087.426758	-38.354092
1092.810059	-36.682415
1098.193359	-35.729958
1103.576660	-35.237179
1108.959961	-34.812176
1114.343262	-34.493439
1119.726562	-34.409725
1125.109863	-34.409019
1130.493164	-34.502460
1135.876465	-34.488041
1141.259766	-34.688568
1146.643066	-35.220661
1152.026367	-35.958496
1157.409668	-36.994675
1162.792969	-38.153591
1168.176270	-39.269989
1173.559570	-39.696922
1178.942871	-39.845024
1184.326172	-41.291058
1189.709473	-44.595123
1195.092773	-47.527336
1200.476074	-42.514526
1205.859375	-38.802074
1211.242676	-35.375950
1216.625977	-32.917988
1222.009277	-33.215416
1227.392578	-35.956100
1232.775879	-39.013756
1238.159180	-41.498039
1243.542480	-40.944965
1248.925781	-38.996456
1254.309082	-37.897984
1259.692383	-37.042919
1265.075684	-36.481087
1270.458984	-36.174080
1275.842285	-36.153324
1281.225586	-36.666065
1286.608887	-37.627560
1291.992188	-39.095131
1297.375488	-40.912754
1302.758789	-42.624416
1308.142090	-44.200424
1313.525391	-45.830563
1318.908691	-47.450714
1324.291992	-47.100552
1329.675293	-44.318768
1335.058594	-41.137501
1340.441895	-38.852665
1345.825195	-37.653915
1351.208496	-37.252625
1356.591797	-37.443310
1361.975098	-37.790394
1367.358398	-37.950714
1372.741699	-38.392471
1378.125000	-38.973484
1383.508301	-39.977867
1388.891602	-40.697803
1394.274902	-41.159534
1399.658203	-41.660164
1405.041504	-41.346481
1410.424805	-40.882469
1415.808105	-39.975735
1421.191406	-39.698437
1426.574707	-40.700809
1431.958008	-42.635532
1437.341309	-46.246201
1442.724609	-52.166187
1448.107910	-54.861397
1453.491211	-50.159931
1458.874512	-47.473743
1464.257812	-45.544296
1469.641113	-44.331856
1475.024414	-44.180500
1480.407715	-44.878399
1485.791016	-45.724968
1491.174316	-46.514236
1496.557617	-46.939018
1501.940918	-45.773018
1507.324219	-43.201553
1512.707520	-41.186832
1518.090820	-39.708504
1523.474121	-38.953873
1528.857422	-39.062508
1534.240723	-39.584351
1539.624023	-40.401150
1545.007324	-41.308502
1550.390625	-42.536491
1555.773926	-44.141052
1561.157227	-45.725178
1566.540527	-47.231155
1571.923828	-50.239952
1577.307129	-52.137497
1582.690430	-48.676498
1588.073730	-44.991711
1593.457031	-43.242897
1598.840332	-42.544243
1604.223633	-41.878246
1609.606934	-41.362103
1614.990234	-41.210312
1620.373535	-42.034451
1625.756836	-43.643059
1631.140137	-45.912876
1636.523438	-48.496521
1641.906738	-51.623466
1647.290039	-56.000679
1652.673340	-61.082836
1658.056641	-56.032856
1663.439941	-53.869537
1668.823242	-52.100067
1674.206543	-50.401348
1679.589844	-49.998249
1684.973145	-49.681896
1690.356445	-49.524281
1695.739746	-50.106762
1701.123047	-50.947651
1706.506348	-51.493401
1711.889648	-51.845478
1717.272949	-51.702641
1722.656250	-51.783188
1728.039551	-52.179222
1733.422852	-51.814713
1738.806152	-50.228268
1744.189453	-48.325977
1749.572754	-46.820187
1754.956055	-44.906998
1760.339355	-43.753723
1765.722656	-43.413494
1771.105957	-43.393768
1776.489258	-43.717476
1781.872559	-43.947922
1787.255859	-44.339947
1792.639160	-45.230289
1798.022461	-46.659863
1803.405762	-47.937504
1808.789062	-49.036053
1814.172363	-48.297474
1819.555664	-46.206184
1824.938965	-43.867939
1830.322266	-42.143238
1835.705566	-41.201862
1841.088867	-40.846886
1846.472168	-40.563412
1851.855469	-40.482586
1857.238770	-40.732304
1862.622070	-40.985107
1868.005371	-41.454414
1873.388672	-42.252277
1878.771973	-42.965702
1884.155273	-43.743797
1889.538574	-44.376129
1894.921875	-45.520519
1900.305176	-47.641216
1905.688477	-49.846844
1911.071777	-51.369286
1916.455078	-51.791515
1921.838379	-51.054897
1927.221680	-50.470261
1932.604980	-49.583584
1937.988281	-49.913219
1943.371582	-51.401367
1948.754883	-53.706238
1954.138184	-56.440598
1959.521484	-60.683678
1964.904785	-57.933544
1970.288086	-52.851204
1975.671387	-49.580673
1981.054688	-47.632557
1986.437988	-46.025879
1991.821289	-46.088844
1997.204590	-49.135551
2002.587891	-57.011013
2007.971191	-51.592274
2013.354492	-45.918407
2018.737793	-43.298557
2024.121094	-42.600857
2029.504395	-41.824955
2034.887695	-41.838676
2040.270996	-42.142170
2045.654297	-42.933025
2051.037598	-44.201794
2056.420898	-45.657497
2061.804199	-46.513176
2067.187500	-45.590141
2072.570801	-43.485752
2077.954102	-41.771481
2083.337402	-40.783722
2088.720703	-40.301682
2094.104004	-40.372467
2099.487305	-40.505745
2104.870605	-41.324322
2110.253906	-42.421360
2115.637207	-44.081200
2121.020508	-45.896847
2126.403809	-47.247200
2131.787109	-46.296638
2137.170410	-43.498920
2142.553711	-41.297646
2147.937012	-40.006252
2153.320312	-39.504776
2158.703613	-39.383976
2164.086914	-40.043243
2169.470215	-40.737289
2174.853516	-40.833282
2180.236816	-40.299564
2185.620117	-39.466923
2191.003418	-38.667194
2196.386719	-38.191162
2201.770020	-38.063866
2207.153320	-37.962467
2212.536621	-37.821842
2217.919922	-37.786377
2223.303223	-37.926376
2228.686523	-38.380352
2234.069824	-39.351891
2239.453125	-41.110794
2244.836426	-43.190048
2250.219727	-45.161842
2255.603027	-46.699760
2260.986328	-47.767990
2266.369629	-48.438148
2271.752930	-48.934792
2277.136230	-49.331944
2282.519531	-49.501873
2287.902832	-49.678272
2293.286133	-49.255608
2298.669434	-48.205490
2304.052734	-46.696285
2309.436035	-45.090286
2314.819336	-43.553154
2320.202637	-42.233803
2325.585938	-41.374798
2330.969238	-40.685635
2336.352539	-40.102184
2341.735840	-39.675903
2347.119141	-39.464348
2352.502441	-39.415047
2357.885742	-39.539368
2363.269043	-39.840137
2368.652344	-40.373539
2374.035645	-40.744625
2379.418945	-41.495323
2384.802246	-42.620846
2390.185547	-43.876404
2395.568848	-45.343048
2400.952148	-47.464588
2406.335449	-50.126526
2411.718750	-53.718128
2417.102051	-57.416302
2422.485352	-56.915737
2427.868652	-53.650192
2433.251953	-50.947052
2438.635254	-49.188831
2444.018555	-47.868523
2449.401855	-46.856709
2454.785156	-46.083118
2460.168457	-45.461044
2465.551758	-45.112564
2470.935059	-44.733269
2476.318359	-44.507420
2481.701660	-44.491409
2487.084961	-44.457020
2492.468262	-44.306175
2497.851562	-44.298828
2503.234863	-44.300091
2508.618164	-44.316349
2514.001465	-44.229877
2519.384766	-44.313435
2524.768066	-44.111465
2530.151367	-44.127106
2535.534668	-44.245712
2540.917969	-44.178879
2546.301270	-43.836399
2551.684570	-43.596046
2557.067871	-43.598869
2562.451172	-43.855717
2567.834473	-44.223160
2573.217773	-44.814137
2578.601074	-45.070438
2583.984375	-45.309345
2589.367676	-45.662903
2594.750977	-46.175259
2600.134277	-46.794853
2605.517578	-48.090130
2610.900879	-49.521072
2616.284180	-51.322109
2621.667480	-51.750057
2627.050781	-51.145493
2632.434082	-49.888485
2637.817383	-48.703289
2643.200684	-47.487640
2648.583984	-46.709183
2653.967285	-45.673370
2659.350586	-44.772465
2664.733887	-44.171955
2670.117188	-44.006199
2675.500488	-44.169212
2680.883789	-44.343521
2686.267090	-44.566860
2691.650391	-44.782372
2697.033691	-44.593323
2702.416992	-44.078060
2707.800293	-43.372532
2713.183594	-42.581352
2718.566895	-41.922878
2723.950195	-41.573128
2729.333496	-41.631451
2734.716797	-41.834641
2740.100098	-42.215271
2745.483398	-42.654732
2750.866699	-42.934322
2756.250000	-42.920544
2761.633301	-42.741478
2767.016602	-42.679314
2772.399902	-42.666538
2777.783203	-42.937786
2783.166504	-43.829536
2788.549805	-45.460396
2793.933105	-46.994576
2799.316406	-49.351768
2804.699707	-51.912544
2810.083008	-52.887043
2815.466309	-51.844547
2820.849609	-50.324265
2826.232910	-48.537365
2831.616211	-46.984299
2836.999512	-45.728004
2842.382812	-44.665565
2847.766113	-43.922260
2853.149414	-43.490845
2858.532715	-43.232025
2863.916016	-43.307999
2869.299316	-43.734283
2874.682617	-44.221336
2880.065918	-44.913795
2885.449219	-45.885998
2890.832520	-47.036037
2896.215820	-48.444069
2901.599121	-50.281128
2906.982422	-52.782345
2912.365723	-55.964375
2917.749023	-60.389412
2923.132324	-68.510872
2928.515625	-79.613251
2933.898926	-67.599983
2939.282227	-62.256035
2944.665527	-59.882252
2950.048828	-58.495586
2955.432129	-56.671089
2960.815430	-54.353962
2966.198730	-52.036964
2971.582031	-49.771809
2976.965332	-47.716000
2982.348633	-46.374645
2987.731934	-45.311314
2993.115234	-44.470070
2998.498535	-44.065907
3003.881836	-43.692158
3009.265137	-43.361298
3014.648438	-43.289547
3020.031738	-43.376129
3025.415039	-43.707123
3030.798340	-44.094406
3036.181641	-44.787624
3041.564941	-45.791752
3046.948242	-47.186283
3052.331543	-49.260490
3057.714844	-51.526283
3063.098145	-53.927101
3068.481445	-55.779270
3073.864746	-54.388115
3079.248047	-51.349281
3084.631348	-48.416321
3090.014648	-46.382820
3095.397949	-44.936184
3100.781250	-44.400242
3106.164551	-44.499641
3111.547852	-44.839191
3116.931152	-45.577896
3122.314453	-46.326645
3127.697754	-47.160183
3133.081055	-48.051109
3138.464355	-48.883381
3143.847656	-49.480759
3149.230957	-50.461163
3154.614258	-51.453480
3159.997559	-52.486332
3165.380859	-52.593483
3170.764160	-52.769547
3176.147461	-53.229065
3181.530762	-53.030849
3186.914062	-52.633739
3192.297363	-51.704655
3197.680664	-50.885769
3203.063965	-49.714577
3208.447266	-48.665096
3213.830566	-47.763336
3219.213867	-47.070591
3224.597168	-46.381077
3229.980469	-45.811565
3235.363770	-45.389328
3240.747070	-45.188984
3246.130371	-45.355919
3251.513672	-45.537682
3256.896973	-45.849129
3262.280273	-46.205029
3267.663574	-46.457722
3273.046875	-46.665596
3278.430176	-46.807888
3283.813477	-46.662350
3289.196777	-46.502316
3294.580078	-46.524170
3299.963379	-46.597767
3305.346680	-46.846954
3310.729980	-47.311295
3316.113281	-48.092651
3321.496582	-49.337765
3326.879883	-50.858959
3332.263184	-52.667652
3337.646484	-55.381420
3343.029785	-58.275803
3348.413086	-58.107224
3353.796387	-54.977116
3359.179688	-52.668854
3364.562988	-50.766365
3369.946289	-49.584679
3375.329590	-48.769863
3380.712891	-48.564270
3386.096191	-48.679527
3391.479492	-48.969803
3396.862793	-49.322742
3402.246094	-49.654610
3407.629395	-50.527782
3413.012695	-51.703045
3418.395996	-53.163116
3423.779297	-55.710609
3429.162598	-58.139565
3434.545898	-59.958649
3439.929199	-61.508282
3445.312500	-63.001163
3450.695801	-63.799812
3456.079102	-66.050690
3461.462402	-67.923210
3466.845703	-72.693520
3472.229004	-77.953941
3477.612305	-67.795227
3482.995605	-61.898403
3488.378906	-58.237309
3493.762207	-55.719059
3499.145508	-53.743870
3504.528809	-52.155449
3509.912109	-50.739235
3515.295410	-49.786510
3520.678711	-49.416157
3526.062012	-49.015118
3531.445312	-48.659405
3536.828613	-48.166260
3542.211914	-47.863461
3547.595215	-47.742668
3552.978516	-47.686573
3558.361816	-47.561981
3563.745117	-47.155617
3569.128418	-46.581398
3574.511719	-46.085140
3579.895020	-45.502068
3585.278320	-45.054710
3590.661621	-46.556911
3596.044922	-49.222420
3601.428223	-50.999466
3606.811523	-51.421757
3612.194824	-51.433556
3617.578125	-51.842789
3622.961426	-52.498516
3628.344727	-54.319962
3633.728027	-56.381889
3639.111328	-58.173855
3644.494629	-60.655933
3649.877930	-61.706844
3655.261230	-59.182354
3660.644531	-57.312851
3666.027832	-55.200584
3671.411133	-53.993496
3676.794434	-53.158104
3682.177734	-52.696682
3687.561035	-52.640770
3692.944336	-52.913593
3698.327637	-53.564709
3703.710938	-54.725945
3709.094238	-56.859127
3714.477539	-59.526440
3719.860840	-62.916000
3725.244141	-65.300194
3730.627441	-64.964859
3736.010742	-60.745434
3741.394043	-57.511135
3746.777344	-55.615868
3752.160645	-54.573685
3757.543945	-53.750542
3762.927246	-53.993763
3768.310547	-54.799213
3773.693848	-54.673908
3779.077148	-53.878178
3784.460449	-53.459023
3789.843750	-53.627155
3795.227051	-54.120007
3800.610352	-54.910957
3805.993652	-55.953686
3811.376953	-56.965511
3816.760254	-57.045975
3822.143555	-55.842949
3827.526855	-54.755680
3832.910156	-54.011787
3838.293457	-53.810665
3843.676758	-54.128803
3849.060059	-54.669971
3854.443359	-55.488071
3859.826660	-55.838585
3865.209961	-55.890682
3870.593262	-55.267330
3875.976562	-54.230225
3881.359863	-53.450382
3886.743164	-52.865341
3892.126465	-52.642632
3897.509766	-52.541698
3902.893066	-52.562241
3908.276367	-52.615669
3913.659668	-52.955467
3919.042969	-53.503315
3924.426270	-53.884399
3929.809570	-54.000389
3935.192871	-53.422279
3940.576172	-52.554699
3945.959473	-51.506134
3951.342773	-50.798218
3956.726074	-50.797138
3962.109375	-50.989422
3967.492676	-51.834816
3972.875977	-53.977478
3978.259277	-57.720280
3983.642578	-59.625263
3989.025879	-56.810043
3994.409180	-53.709919
3999.792480	-51.096920
4005.175781	-49.504780
4010.559082	-48.367298
4015.942383	-47.703869
4021.325684	-47.160233
4026.708984	-46.774876
4032.092285	-46.736282
4037.475586	-46.940559
4042.858887	-47.227970
4048.242188	-47.611340
4053.625488	-48.455349
4059.008789	-49.638393
4064.392090	-50.428146
4069.775391	-51.088753
4075.158691	-51.343643
4080.541992	-51.318256
4085.925293	-51.051838
4091.308594	-50.317059
4096.691895	-49.834274
4102.075195	-49.805328
4107.458496	-49.928608
4112.841797	-50.228458
4118.225098	-50.539467
4123.608398	-50.924202
4128.991699	-51.122124
4134.375000	-51.109161
4139.758301	-50.657120
4145.141602	-50.316509
4150.524902	-50.221455
4155.908203	-50.428246
4161.291504	-50.281990
4166.674805	-49.775726
4172.058105	-49.714989
4177.441406	-49.377464
4182.824707	-49.092411
4188.208008	-48.909210
4193.591309	-48.394012
4198.974609	-48.272362
4204.357910	-48.368706
4209.741211	-48.566757
4215.124512	-48.803158
4220.507812	-48.930237
4225.891113	-49.610653
4231.274414	-50.430199
4236.657715	-51.726833
4242.041016	-53.056438
4247.424316	-54.477821
4252.807617	-55.934174
4258.190918	-55.892822
4263.574219	-56.125954
4268.957520	-56.914627
4274.340820	-57.515362
4279.724121	-58.205418
4285.107422	-58.295189
4290.490723	-57.060387
4295.874023	-54.450218
4301.257324	-52.179005
4306.640625	-50.347015
4312.023926	-49.212414
4317.407227	-48.338425
4322.790527	-47.865288
4328.173828	-47.365009
4333.557129	-46.940281
4338.940430	-46.419300
4344.323730	-45.565407
4349.707031	-44.813557
4355.090332	-44.236980
4360.473633	-43.760677
4365.856934	-43.512981
4371.240234	-43.149391
4376.623535	-42.950367
4382.006836	-42.904495
4387.390137	-43.081451
4392.773438	-43.385738
4398.156738	-43.696541
4403.540039	-44.144535
4408.923340	-44.635735
4414.306641	-45.054211
4419.689941	-45.668011
4425.073242	-46.827213
4430.456543	-47.967548
4435.839844	-49.119339
4441.223145	-50.543331
4446.606445	-51.777000
4451.989746	-52.873058
4457.373047	-53.809959
4462.756348	-54.725655
4468.139648	-55.080490
4473.522949	-55.341530
4478.906250	-55.940132
4484.289551	-56.657009
4489.672852	-57.596600
4495.056152	-58.128342
4500.439453	-59.765739
4505.822754	-62.864445
4511.206055	-67.048737
4516.589355	-72.075310
4521.972656	-69.171410
4527.355957	-64.909386
4532.739258	-60.607265
4538.122559	-58.095234
4543.505859	-56.134323
4548.889160	-54.564674
4554.272461	-54.589279
4559.655762	-55.291130
4565.039062	-55.609318
4570.422363	-57.220543
4575.805664	-59.308617
4581.188965	-61.213295
4586.572266	-61.425320
4591.955566	-60.226677
4597.338867	-58.721382
4602.722168	-57.071041
4608.105469	-55.950809
4613.488770	-54.275951
4618.872070	-52.901463
4624.255371	-51.479492
4629.638672	-50.827572
4635.021973	-50.638271
4640.405273	-50.559834
4645.788574	-50.348549
4651.171875	-50.675335
4656.555176	-50.986355
4661.938477	-51.558113
4667.321777	-52.261021
4672.705078	-52.776173
4678.088379	-52.991108
4683.471680	-53.290833
4688.854980	-53.384090
4694.238281	-53.917885
4699.621582	-54.549126
4705.004883	-54.852932
4710.388184	-54.614548
4715.771484	-54.027588
4721.154785	-53.187584
